"Time (s)"	"Recording (a.u.)"
0.000000000E0	-4.660176397E-2
2.083333333E-5	-4.556413465E-2
4.166666667E-5	-4.321420942E-2
6.250000000E-5	-4.132206183E-2
8.333333333E-5	-3.903317362E-2
1.041666667E-4	-3.650013733E-2
1.250000000E-4	-3.387554552E-2
1.458333333E-4	-3.118991668E-2
1.666666667E-4	-2.804651021E-2
1.875000000E-4	-2.597125156E-2
2.083333333E-4	-2.276680807E-2
2.291666667E-4	-2.096621601E-2
2.500000000E-4	-1.690725425E-2
2.708333333E-4	-1.403851436E-2
2.916666667E-4	-1.147495956E-2
3.125000000E-4	-8.270516068E-3
3.333333333E-4	-4.638813440E-3
3.541666667E-4	-2.014221625E-3
3.750000000E-4	1.281777398E-3
3.958333333E-4	5.005035554E-3
4.166666667E-4	7.904293954E-3
4.375000000E-4	1.190221870E-2
4.583333333E-4	1.455732902E-2
4.791666667E-4	1.791436506E-2
5.000000000E-4	2.145451216E-2
5.208333333E-4	2.343821528E-2
5.416666667E-4	2.710043641E-2
5.625000000E-4	3.067110202E-2
5.833333333E-4	3.283791620E-2
6.041666667E-4	3.607287820E-2
6.250000000E-4	3.888058107E-2
6.458333333E-4	4.071169164E-2
6.666666667E-4	4.412976470E-2
6.875000000E-4	4.583880123E-2
7.083333333E-4	4.809717093E-2
7.291666667E-4	5.032502213E-2
7.500000000E-4	5.243079928E-2
7.708333333E-4	5.398724326E-2
7.916666667E-4	5.584887234E-2
8.125000000E-4	5.658131657E-2
8.333333333E-4	5.789361248E-2
8.541666667E-4	5.929746391E-2
8.750000000E-4	5.951109348E-2
8.958333333E-4	5.929746391E-2
9.166666667E-4	5.963316752E-2
9.375000000E-4	6.042664876E-2
9.583333333E-4	5.941953795E-2
9.791666667E-4	5.764946440E-2
1.000000000E-3	5.807672353E-2
1.020833333E-3	5.633716849E-2
1.041666667E-3	5.545213172E-2
1.062500000E-3	5.288857692E-2
1.083333333E-3	5.215613269E-2
1.104166667E-3	5.066072573E-2
1.125000000E-3	4.849391156E-2
1.145833333E-3	4.577776421E-2
1.166666667E-3	4.434339427E-2
1.187500000E-3	4.156620991E-2
1.208333333E-3	3.970458083E-2
1.229166667E-3	3.695791498E-2
1.250000000E-3	3.466902676E-2
1.270833333E-3	3.155613880E-2
1.291666667E-3	2.996917631E-2
1.312500000E-3	2.609332560E-2
1.333333333E-3	2.346873379E-2
1.354166667E-3	2.111880856E-2
1.375000000E-3	1.767021699E-2
1.395833333E-3	1.455732902E-2
1.416666667E-3	1.187170019E-2
1.437500000E-3	8.148442030E-3
1.458333333E-3	5.676442763E-3
1.479166667E-3	2.288888211E-3
1.500000000E-3	-1.098666341E-3
1.520833333E-3	-4.242072817E-3
1.541666667E-3	-7.415997803E-3
1.562500000E-3	-1.077303385E-2
1.583333333E-3	-1.376384777E-2
1.604166667E-3	-1.718192083E-2
1.625000000E-3	-2.041688284E-2
1.645833333E-3	-2.270577105E-2
1.666666667E-3	-2.642902921E-2
1.687500000E-3	-2.920621357E-2
1.708333333E-3	-3.222754601E-2
1.729166667E-3	-3.448591571E-2
1.750000000E-3	-3.762932218E-2
1.770833333E-3	-4.025391400E-2
1.791666667E-3	-4.248176519E-2
1.812500000E-3	-4.492324595E-2
1.833333333E-3	-4.779198584E-2
1.854166667E-3	-4.943998535E-2
1.875000000E-3	-5.166783654E-2
1.895833333E-3	-5.346842860E-2
1.916666667E-3	-5.539109470E-2
1.937500000E-3	-5.642872402E-2
1.958333333E-3	-5.777153844E-2
1.979166667E-3	-5.880916776E-2
2.000000000E-3	-5.932798242E-2
2.020833333E-3	-6.030457472E-2
2.041666667E-3	-6.030457472E-2
2.062500000E-3	-5.984679708E-2
2.083333333E-3	-6.042664876E-2
2.104166667E-3	-5.899227882E-2
2.125000000E-3	-5.807672353E-2
2.145833333E-3	-5.774101993E-2
2.166666667E-3	-5.615405744E-2
2.187500000E-3	-5.465865047E-2
2.208333333E-3	-5.371257668E-2
2.229166667E-3	-5.099642933E-2
2.250000000E-3	-4.968413343E-2
2.270833333E-3	-4.721213416E-2
2.291666667E-3	-4.449598682E-2
2.312500000E-3	-4.324472793E-2
2.333333333E-3	-4.083376568E-2
2.354166667E-3	-3.765984069E-2
2.375000000E-3	-3.579821162E-2
2.395833333E-3	-3.286843471E-2
2.416666667E-3	-3.070162053E-2
2.437500000E-3	-2.752769555E-2
2.458333333E-3	-2.502517777E-2
2.479166667E-3	-2.255317850E-2
2.500000000E-3	-1.934873501E-2
2.520833333E-3	-1.718192083E-2
2.541666667E-3	-1.272621845E-2
2.562500000E-3	-9.430219428E-3
2.583333333E-3	-7.629627369E-3
2.604166667E-3	-3.326517533E-3
2.625000000E-3	-1.220740379E-3
2.645833333E-3	2.227851192E-3
2.666666667E-3	5.676442763E-3
2.687500000E-3	8.270516068E-3
2.708333333E-3	1.257362590E-2
2.729166667E-3	1.513718070E-2
2.750000000E-3	1.855525376E-2
2.770833333E-3	2.072206793E-2
2.791666667E-3	2.377391888E-2
2.812500000E-3	2.755821406E-2
2.833333333E-3	2.981658376E-2
2.854166667E-3	3.247169408E-2
2.875000000E-3	3.610339671E-2
2.895833333E-3	3.863643300E-2
2.916666667E-3	4.092532121E-2
2.937500000E-3	4.287850581E-2
2.958333333E-3	4.544206061E-2
2.979166667E-3	4.773094882E-2
3.000000000E-3	4.998931852E-2
3.020833333E-3	5.240028077E-2
3.041666667E-3	5.355998413E-2
3.062500000E-3	5.511642811E-2
3.083333333E-3	5.728324229E-2
3.104166667E-3	5.804620502E-2
3.125000000E-3	5.838190863E-2
3.145833333E-3	5.935850093E-2
3.166666667E-3	5.987731559E-2
3.187500000E-3	5.975524155E-2
3.208333333E-3	5.896176031E-2
3.229166667E-3	5.929746391E-2
3.250000000E-3	5.761894589E-2
3.270833333E-3	5.749687185E-2
3.291666667E-3	5.606250191E-2
3.312500000E-3	5.471968749E-2
3.333333333E-3	5.380413221E-2
3.354166667E-3	5.096591082E-2
3.375000000E-3	4.989776299E-2
3.395833333E-3	4.730368969E-2
3.416666667E-3	4.568620869E-2
3.437500000E-3	4.293954283E-2
3.458333333E-3	4.171880245E-2
3.479166667E-3	3.845332194E-2
3.500000000E-3	3.714102603E-2
3.520833333E-3	3.332621235E-2
3.541666667E-3	3.164769433E-2
3.562500000E-3	2.893154698E-2
3.583333333E-3	2.627643666E-2
3.604166667E-3	2.288888211E-2
3.625000000E-3	2.111880856E-2
3.645833333E-3	1.791436506E-2
3.666666667E-3	1.483199561E-2
3.687500000E-3	1.062044130E-2
3.708333333E-3	8.392590106E-3
3.729166667E-3	5.005035554E-3
3.750000000E-3	1.739555040E-3
3.770833333E-3	-1.586962493E-3
3.791666667E-3	-4.211554308E-3
3.812500000E-3	-7.080294198E-3
3.833333333E-3	-1.068147832E-2
3.854166667E-3	-1.376384777E-2
3.875000000E-3	-1.702932829E-2
3.895833333E-3	-1.998962371E-2
3.916666667E-3	-2.325510422E-2
3.937500000E-3	-2.618488113E-2
3.958333333E-3	-2.923673208E-2
3.979166667E-3	-3.247169408E-2
4.000000000E-3	-3.509628590E-2
4.020833333E-3	-3.845332194E-2
4.041666667E-3	-4.074221015E-2
4.062500000E-3	-4.364146855E-2
4.083333333E-3	-4.614398633E-2
4.104166667E-3	-4.733420820E-2
4.125000000E-3	-5.053865169E-2
4.145833333E-3	-5.294961394E-2
4.166666667E-3	-5.429242836E-2
4.187500000E-3	-5.652027955E-2
4.208333333E-3	-5.722220527E-2
4.229166667E-3	-5.856501968E-2
4.250000000E-3	-5.969420454E-2
4.270833333E-3	-5.990783410E-2
4.291666667E-3	-6.076235237E-2
4.312500000E-3	-6.134220405E-2
4.333333333E-3	-6.167790765E-2
4.354166667E-3	-6.036561174E-2
4.375000000E-3	-6.021301920E-2
4.395833333E-3	-5.883968627E-2
4.416666667E-3	-5.767998291E-2
4.437500000E-3	-5.639820551E-2
4.458333333E-3	-5.581835383E-2
4.479166667E-3	-5.349894711E-2
4.500000000E-3	-5.227820673E-2
4.520833333E-3	-5.066072573E-2
4.541666667E-3	-4.834131901E-2
4.562500000E-3	-4.620502335E-2
4.583333333E-3	-4.382457961E-2
4.604166667E-3	-4.217658010E-2
4.625000000E-3	-3.933835871E-2
4.645833333E-3	-3.674428541E-2
4.666666667E-3	-3.451643422E-2
4.687500000E-3	-3.225806452E-2
4.708333333E-3	-2.880947295E-2
4.729166667E-3	-2.685628834E-2
4.750000000E-3	-2.392651143E-2
4.770833333E-3	-2.059999390E-2
4.791666667E-3	-1.770073550E-2
4.812500000E-3	-1.480147710E-2
4.833333333E-3	-1.141392254E-2
4.854166667E-3	-8.331553087E-3
4.875000000E-3	-5.462813196E-3
4.895833333E-3	-2.349925230E-3
4.916666667E-3	8.545182653E-4
4.937500000E-3	4.211554308E-3
4.958333333E-3	6.866664632E-3
4.979166667E-3	1.052888577E-2
5.000000000E-3	1.361125523E-2
5.020833333E-3	1.675466170E-2
5.041666667E-3	2.066103092E-2
5.062500000E-3	2.267525254E-2
5.083333333E-3	2.661214026E-2
5.104166667E-3	2.966399121E-2
5.125000000E-3	3.253273110E-2
5.145833333E-3	3.521835994E-2
5.166666667E-3	3.802606281E-2
5.187500000E-3	4.095583972E-2
5.208333333E-3	4.358043153E-2
5.229166667E-3	4.535050508E-2
5.250000000E-3	4.779198584E-2
5.270833333E-3	5.029450362E-2
5.291666667E-3	5.182042909E-2
5.312500000E-3	5.310220649E-2
5.333333333E-3	5.511642811E-2
5.354166667E-3	5.670339061E-2
5.375000000E-3	5.734427931E-2
5.395833333E-3	5.862605670E-2
5.416666667E-3	5.929746391E-2
5.437500000E-3	5.981627857E-2
5.458333333E-3	5.951109348E-2
5.479166667E-3	5.896176031E-2
5.500000000E-3	5.935850093E-2
5.520833333E-3	5.829035310E-2
5.541666667E-3	5.716116825E-2
5.562500000E-3	5.679494613E-2
5.583333333E-3	5.557420576E-2
5.604166667E-3	5.355998413E-2
5.625000000E-3	5.243079928E-2
5.645833333E-3	5.044709616E-2
5.666666667E-3	4.837183752E-2
5.687500000E-3	4.593035676E-2
5.708333333E-3	4.467909787E-2
5.729166667E-3	4.199346904E-2
5.750000000E-3	4.019287698E-2
5.770833333E-3	3.744621113E-2
5.791666667E-3	3.482161931E-2
5.812500000E-3	3.274636067E-2
5.833333333E-3	2.987762078E-2
5.854166667E-3	2.658162175E-2
5.875000000E-3	2.450636311E-2
5.895833333E-3	2.224799341E-2
5.916666667E-3	1.864680929E-2
5.937500000E-3	1.565599536E-2
5.958333333E-3	1.290932951E-2
5.979166667E-3	9.521774957E-3
6.000000000E-3	6.714072085E-3
6.020833333E-3	3.112887967E-3
6.041666667E-3	7.324442274E-4
6.062500000E-3	-2.655110324E-3
6.083333333E-3	-5.767998291E-3
6.104166667E-3	-9.002960295E-3
6.125000000E-3	-1.223792230E-2
6.145833333E-3	-1.562547685E-2
6.166666667E-3	-1.864680929E-2
6.187500000E-3	-2.154606769E-2
6.208333333E-3	-2.441480758E-2
6.229166667E-3	-2.786339915E-2
6.250000000E-3	-3.027436140E-2
6.270833333E-3	-3.338724937E-2
6.291666667E-3	-3.598132267E-2
6.312500000E-3	-3.906369213E-2
6.333333333E-3	-4.168828394E-2
6.354166667E-3	-4.358043153E-2
6.375000000E-3	-4.644917142E-2
6.395833333E-3	-4.815820795E-2
6.416666667E-3	-5.105746635E-2
6.437500000E-3	-5.267494736E-2
6.458333333E-3	-5.432294687E-2
6.479166667E-3	-5.575731681E-2
6.500000000E-3	-5.734427931E-2
6.520833333E-3	-5.755790887E-2
6.541666667E-3	-5.877864925E-2
6.562500000E-3	-5.948057497E-2
6.583333333E-3	-6.033509323E-2
6.604166667E-3	-6.009094516E-2
6.625000000E-3	-5.987731559E-2
6.645833333E-3	-5.856501968E-2
6.666666667E-3	-5.853450117E-2
6.687500000E-3	-5.731376080E-2
6.708333333E-3	-5.529953917E-2
6.729166667E-3	-5.526902066E-2
6.750000000E-3	-5.316324351E-2
6.770833333E-3	-5.182042909E-2
6.791666667E-3	-4.925687429E-2
6.812500000E-3	-4.776146733E-2
6.833333333E-3	-4.553361614E-2
6.854166667E-3	-4.333628346E-2
6.875000000E-3	-4.156620991E-2
6.895833333E-3	-3.833124790E-2
6.916666667E-3	-3.738517411E-2
6.937500000E-3	-3.344828639E-2
6.958333333E-3	-3.070162053E-2
6.979166667E-3	-2.786339915E-2
7.000000000E-3	-2.505569628E-2
7.020833333E-3	-2.294991913E-2
7.041666667E-3	-1.953184606E-2
7.062500000E-3	-1.727347636E-2
7.083333333E-3	-1.321451460E-2
7.104166667E-3	-1.071199683E-2
7.125000000E-3	-6.653035066E-3
7.145833333E-3	-4.150517289E-3
7.166666667E-3	-9.460737938E-4
7.187500000E-3	2.044740135E-3
7.208333333E-3	4.577776421E-3
7.229166667E-3	7.446516312E-3
7.250000000E-3	1.232947783E-2
7.270833333E-3	1.425214393E-2
7.291666667E-3	1.773125401E-2
7.312500000E-3	2.072206793E-2
7.333333333E-3	2.410962249E-2
7.354166667E-3	2.642902921E-2
7.375000000E-3	2.938932463E-2
7.395833333E-3	3.289895322E-2
7.416666667E-3	3.537095248E-2
7.437500000E-3	3.830072939E-2
7.458333333E-3	4.062013611E-2
7.479166667E-3	4.287850581E-2
7.500000000E-3	4.525894955E-2
7.520833333E-3	4.803613392E-2
7.541666667E-3	4.989776299E-2
7.562500000E-3	5.236976226E-2
7.583333333E-3	5.386516923E-2
7.604166667E-3	5.523850215E-2
7.625000000E-3	5.731376080E-2
7.645833333E-3	5.728324229E-2
7.666666667E-3	5.868709372E-2
7.687500000E-3	6.009094516E-2
7.708333333E-3	5.966368603E-2
7.729166667E-3	6.109805597E-2
7.750000000E-3	5.963316752E-2
7.770833333E-3	5.993835261E-2
7.791666667E-3	5.914487136E-2
7.812500000E-3	5.801568651E-2
7.833333333E-3	5.777153844E-2
7.854166667E-3	5.633716849E-2
7.875000000E-3	5.508590960E-2
7.895833333E-3	5.365153966E-2
7.916666667E-3	5.160679952E-2
7.937500000E-3	4.879909665E-2
7.958333333E-3	4.699850459E-2
7.979166667E-3	4.544206061E-2
8.000000000E-3	4.284798730E-2
8.020833333E-3	3.985717338E-2
8.041666667E-3	3.881954405E-2
8.062500000E-3	3.628650777E-2
8.083333333E-3	3.222754601E-2
8.104166667E-3	3.015228736E-2
8.125000000E-3	2.771080660E-2
8.145833333E-3	2.496414075E-2
8.166666667E-3	2.200384533E-2
8.187500000E-3	1.913510544E-2
8.208333333E-3	1.647999512E-2
8.229166667E-3	1.321451460E-2
8.250000000E-3	1.004058962E-2
8.270833333E-3	5.890072329E-3
8.291666667E-3	4.028443251E-3
8.312500000E-3	5.188146611E-4
8.333333333E-3	-2.929776910E-3
8.354166667E-3	-6.134220405E-3
8.375000000E-3	-9.216589862E-3
8.395833333E-3	-1.272621845E-2
8.416666667E-3	-1.602221747E-2
8.437500000E-3	-1.971495712E-2
8.458333333E-3	-2.230903043E-2
8.479166667E-3	-2.615436262E-2
8.500000000E-3	-2.853480636E-2
8.520833333E-3	-3.201391644E-2
8.541666667E-3	-3.463850826E-2
8.562500000E-3	-3.735465560E-2
8.583333333E-3	-4.028443251E-2
8.604166667E-3	-4.257332072E-2
8.625000000E-3	-4.467909787E-2
8.645833333E-3	-4.712057863E-2
8.666666667E-3	-4.983672597E-2
8.687500000E-3	-5.233924375E-2
8.708333333E-3	-5.340739158E-2
8.729166667E-3	-5.590990936E-2
8.750000000E-3	-5.725272378E-2
8.770833333E-3	-5.810724204E-2
8.791666667E-3	-5.957213050E-2
8.812500000E-3	-5.978576006E-2
8.833333333E-3	-6.027405622E-2
8.854166667E-3	-6.122013001E-2
8.875000000E-3	-5.996887112E-2
8.895833333E-3	-6.060975982E-2
8.916666667E-3	-5.972472304E-2
8.937500000E-3	-5.838190863E-2
8.958333333E-3	-5.789361248E-2
8.979166667E-3	-5.703909421E-2
9.000000000E-3	-5.523850215E-2
9.020833333E-3	-5.386516923E-2
9.041666667E-3	-5.264442885E-2
9.062500000E-3	-5.008087405E-2
9.083333333E-3	-4.886013367E-2
9.104166667E-3	-4.605243080E-2
9.125000000E-3	-4.403820917E-2
9.145833333E-3	-4.123050630E-2
9.166666667E-3	-3.939939573E-2
9.187500000E-3	-3.695791498E-2
9.208333333E-3	-3.372295297E-2
9.229166667E-3	-3.146458327E-2
9.250000000E-3	-2.877895444E-2
9.270833333E-3	-2.658162175E-2
9.291666667E-3	-2.298043764E-2
9.312500000E-3	-2.050843837E-2
9.333333333E-3	-1.821955016E-2
9.354166667E-3	-1.379436628E-2
9.375000000E-3	-1.132236702E-2
9.395833333E-3	-8.087405011E-3
9.416666667E-3	-4.181035798E-3
9.437500000E-3	-1.617481002E-3
9.458333333E-3	1.861629078E-3
9.479166667E-3	5.645924253E-3
9.500000000E-3	7.110812708E-3
9.520833333E-3	1.217688528E-2
9.541666667E-3	1.458784753E-2
9.562500000E-3	1.803643910E-2
9.583333333E-3	2.114932707E-2
9.604166667E-3	2.426221503E-2
9.625000000E-3	2.816858425E-2
9.645833333E-3	3.024384289E-2
9.666666667E-3	3.408917508E-2
9.687500000E-3	3.607287820E-2
9.708333333E-3	3.964354381E-2
9.729166667E-3	4.174932096E-2
9.750000000E-3	4.455702383E-2
9.770833333E-3	4.638813440E-2
9.791666667E-3	4.886013367E-2
9.812500000E-3	5.121005890E-2
9.833333333E-3	5.328531755E-2
9.854166667E-3	5.453657643E-2
9.875000000E-3	5.624561296E-2
9.895833333E-3	5.798516800E-2
9.916666667E-3	5.883968627E-2
9.937500000E-3	5.987731559E-2
9.958333333E-3	5.948057497E-2
9.979166667E-3	6.088442640E-2
1.000000000E-2	6.112857448E-2
1.002083333E-2	5.981627857E-2
1.004166667E-2	5.993835261E-2
1.006250000E-2	5.981627857E-2
1.008333333E-2	5.877864925E-2
1.010416667E-2	5.743583483E-2
1.012500000E-2	5.627613147E-2
1.014583333E-2	5.536057619E-2
1.016666667E-2	5.322428053E-2
1.018750000E-2	5.185094760E-2
1.020833333E-2	4.953154088E-2
1.022916667E-2	4.779198584E-2
1.025000000E-2	4.565569018E-2
1.027083333E-2	4.376354259E-2
1.029166667E-2	4.062013611E-2
1.031250000E-2	3.888058107E-2
1.033333333E-2	3.665272988E-2
1.035416667E-2	3.363139744E-2
1.037500000E-2	3.222754601E-2
1.039583333E-2	2.841273232E-2
1.041666667E-2	2.612384411E-2
1.043750000E-2	2.337717826E-2
1.045833333E-2	2.056947539E-2
1.047916667E-2	1.718192083E-2
1.050000000E-2	1.434369945E-2
1.052083333E-2	1.101718192E-2
1.054166667E-2	8.392590106E-3
1.056250000E-2	4.638813440E-3
1.058333333E-2	1.983703116E-3
1.060416667E-2	-1.251258889E-3
1.062500000E-2	-5.127109592E-3
1.064583333E-2	-7.446516312E-3
1.066666667E-2	-1.104770043E-2
1.068750000E-2	-1.470992157E-2
1.070833333E-2	-1.718192083E-2
1.072916667E-2	-2.072206793E-2
1.075000000E-2	-2.423169652E-2
1.077083333E-2	-2.706991791E-2
1.079166667E-2	-2.975554674E-2
1.081250000E-2	-3.329569384E-2
1.083333333E-2	-3.546250801E-2
1.085416667E-2	-3.881954405E-2
1.087500000E-2	-4.123050630E-2
1.089583333E-2	-4.361095004E-2
1.091666667E-2	-4.626606037E-2
1.093750000E-2	-4.904324473E-2
1.095833333E-2	-5.041657765E-2
1.097916667E-2	-5.291909543E-2
1.100000000E-2	-5.459761345E-2
1.102083333E-2	-5.652027955E-2
1.104166667E-2	-5.679494613E-2
1.106250000E-2	-5.825983459E-2
1.108333333E-2	-5.905331584E-2
1.110416667E-2	-5.926694540E-2
1.112500000E-2	-6.012146367E-2
1.114583333E-2	-5.975524155E-2
1.116666667E-2	-6.009094516E-2
1.118750000E-2	-5.926694540E-2
1.120833333E-2	-5.801568651E-2
1.122916667E-2	-5.710013123E-2
1.125000000E-2	-5.645924253E-2
1.127083333E-2	-5.490279855E-2
1.129166667E-2	-5.349894711E-2
1.131250000E-2	-5.252235481E-2
1.133333333E-2	-4.950102237E-2
1.135416667E-2	-4.840235603E-2
1.137500000E-2	-4.620502335E-2
1.139583333E-2	-4.300057985E-2
1.141666667E-2	-4.214606159E-2
1.143750000E-2	-3.927732170E-2
1.145833333E-2	-3.720206305E-2
1.147916667E-2	-3.476058229E-2
1.150000000E-2	-3.167821284E-2
1.152083333E-2	-2.880947295E-2
1.154166667E-2	-2.658162175E-2
1.156250000E-2	-2.282784509E-2
1.158333333E-2	-2.059999390E-2
1.160416667E-2	-1.791436506E-2
1.162500000E-2	-1.458784753E-2
1.164583333E-2	-1.150547807E-2
1.166666667E-2	-8.148442030E-3
1.168750000E-2	-5.584887234E-3
1.170833333E-2	-2.166814173E-3
1.172916667E-2	1.403851436E-3
1.175000000E-2	3.906369213E-3
1.177083333E-2	7.110812708E-3
1.179166667E-2	1.040681173E-2
1.181250000E-2	1.367229225E-2
1.183333333E-2	1.684621723E-2
1.185416667E-2	1.980651265E-2
1.187500000E-2	2.310251167E-2
1.189583333E-2	2.591021455E-2
1.191666667E-2	2.914517655E-2
1.193750000E-2	3.195287942E-2
1.195833333E-2	3.485213782E-2
1.197916667E-2	3.839228492E-2
1.200000000E-2	4.022339549E-2
1.202083333E-2	4.297006134E-2
1.204166667E-2	4.580828272E-2
1.206250000E-2	4.757835627E-2
1.208333333E-2	4.998931852E-2
1.210416667E-2	5.191198462E-2
1.212500000E-2	5.413983581E-2
1.214583333E-2	5.523850215E-2
1.216666667E-2	5.734427931E-2
1.218750000E-2	5.758842738E-2
1.220833333E-2	5.923642689E-2
1.222916667E-2	5.978576006E-2
1.225000000E-2	6.070131535E-2
1.227083333E-2	6.039613025E-2
1.229166667E-2	6.057924131E-2
1.231250000E-2	6.012146367E-2
1.233333333E-2	5.862605670E-2
1.235416667E-2	5.847346416E-2
1.237500000E-2	5.737479781E-2
1.239583333E-2	5.636768700E-2
1.241666667E-2	5.423139134E-2
1.243750000E-2	5.371257668E-2
1.245833333E-2	5.230872524E-2
1.247916667E-2	4.980620746E-2
1.250000000E-2	4.773094882E-2
1.252083333E-2	4.611346782E-2
1.254166667E-2	4.458754234E-2
1.256250000E-2	4.168828394E-2
1.258333333E-2	3.927732170E-2
1.260416667E-2	3.683584094E-2
1.262500000E-2	3.460798975E-2
1.264583333E-2	3.134250923E-2
1.266666667E-2	2.822962127E-2
1.268750000E-2	2.633747368E-2
1.270833333E-2	2.316354869E-2
1.272916667E-2	2.014221625E-2
1.275000000E-2	1.733451338E-2
1.277083333E-2	1.351969970E-2
1.279166667E-2	1.135288553E-2
1.281250000E-2	7.293923765E-3
1.283333333E-2	4.242072817E-3
1.285416667E-2	1.678518021E-3
1.287500000E-2	-1.190221870E-3
1.289583333E-2	-5.829035310E-3
1.291666667E-2	-8.148442030E-3
1.293750000E-2	-1.095614490E-2
1.295833333E-2	-1.440473647E-2
1.297916667E-2	-1.763969848E-2
1.300000000E-2	-2.053895688E-2
1.302083333E-2	-2.343821528E-2
1.304166667E-2	-2.658162175E-2
1.306250000E-2	-2.957243568E-2
1.308333333E-2	-3.323465682E-2
1.310416667E-2	-3.527939695E-2
1.312500000E-2	-3.802606281E-2
1.314583333E-2	-4.080324717E-2
1.316666667E-2	-4.345835749E-2
1.318750000E-2	-4.547257912E-2
1.320833333E-2	-4.821924497E-2
1.322916667E-2	-5.029450362E-2
1.325000000E-2	-5.258339183E-2
1.327083333E-2	-5.435346538E-2
1.329166667E-2	-5.572679830E-2
1.331250000E-2	-5.734427931E-2
1.333333333E-2	-5.743583483E-2
1.335416667E-2	-5.908383435E-2
1.337500000E-2	-5.938901944E-2
1.339583333E-2	-5.966368603E-2
1.341666667E-2	-5.908383435E-2
1.343750000E-2	-5.966368603E-2
1.345833333E-2	-5.883968627E-2
1.347916667E-2	-5.810724204E-2
1.350000000E-2	-5.688650166E-2
1.352083333E-2	-5.658131657E-2
1.354166667E-2	-5.508590960E-2
1.356250000E-2	-5.294961394E-2
1.358333333E-2	-5.178991058E-2
1.360416667E-2	-4.983672597E-2
